Node n          Flow Rate, Q         Pressure, P          Lateral Flow Rate, q
================================================================================
    0                9500.0              207000.0                   0.0
    1             8703.2454             206841.73             796.75463
    2             7906.7759             206707.16             796.46949
    3             7110.5452             206594.51             796.23072
    4             6314.5106             206501.95             796.03451
    5             5518.6337             206427.67               795.877
    6             4722.8794             206369.78             795.75425
    7             3927.2172              206326.4             795.66224
    8             3131.6203             206295.57             795.59685
    9             2336.0665              206275.3             795.55385
   10             1540.5376             206263.52             795.52886
   11              745.0203             206258.07              795.5173
   12                   0.0             206256.65             745.02031
   13                   0.0                     0                   0.0
   14                   0.0                     0                   0.0
   15                   0.0                     0                   0.0
   16                   0.0                     0                   0.0
   17                   0.0                     0                   0.0
   18                   0.0                     0                   0.0
