Node n          Flow Rate, Q         Pressure, P          Lateral Flow Rate, q
================================================================================
    0                9500.0              207000.0                   0.0
    1            8703.24537             206841.73             796.75463
    2            7906.77589             206707.16             796.46948
    3            7110.54519              206594.5              796.2307
    4            6314.51069             206501.95              796.0345
    5            5518.63371             206427.66             795.87698
    6            4722.87947             206369.78             795.75424
    7            3927.21723              206326.4             795.66224
    8            3131.62039             206295.57             795.59684
    9            2336.06654              206275.3             795.55385
   10            1540.53768             206263.52             795.52886
   11             745.02038             206258.07              795.5173
   12                   0.0             206256.65             745.02038
   13                   0.0                     0                   0.0
